Data from CuSO4_3_background_FLMS006191__0__14-56-27-330.txt Node

Date: Sat May 15 14:56:27 MSK 2021
User: margo
Spectrometer: FLMS00619
Trigger mode: 0
Integration Time (sec): 1,000000E-3
Scans to average: 250
Electric dark correction enabled: true
Nonlinearity correction enabled: false
Boxcar width: 0
XAxis mode: Wavelengths
Number of Pixels in Spectrum: 2048
>>>>>Begin Spectral Data<<<<<
179,619	-13,73
180,001	-13,73
180,383	-13,73
180,764	-67,17
181,146	-71,57
181,528	-72,14
181,91	-73,96
182,292	-70,96
182,673	-60,66
183,055	-51,28
183,437	-42,3
183,818	-31,19
184,2	-18,93
184,581	-4,91
184,963	11,65
185,344	27,83
185,726	44,74
186,107	64,02
186,489	73,08
186,87	95,43
187,251	109,58
187,633	128,03
188,014	142,1
188,395	158,71
188,777	173,75
189,158	187,25
189,539	198,56
189,92	210,78
190,301	226,04
190,682	234,46
191,063	247,12
191,444	253,12
191,825	268,3
192,206	272,34
192,587	281,9
192,968	289,12
193,349	290,7
193,73	298,55
194,111	301,2
194,492	303,06
194,872	305,86
195,253	310,34
195,634	309,19
196,014	306,21
196,395	310,08
196,776	314
197,156	309,84
197,537	312,64
197,917	308,02
198,298	308,37
198,678	306,93
199,059	307,26
199,439	305,27
199,819	305,31
200,2	305,37
200,58	299,12
200,96	296,8
201,341	297,17
201,721	294,26
202,101	295,32
202,481	296,88
202,861	288,53
203,241	288,62
203,621	290,25
204,001	283,53
204,381	290,05
204,761	284,1
205,141	282,4
205,521	284,45
205,901	276,31
206,281	279,12
206,661	281,65
207,04	282,12
207,42	275,89
207,8	279,6
208,18	276,44
208,559	278,5
208,939	277,65
209,318	276,91
209,698	274,92
210,077	271,32
210,457	275,78
210,836	273,54
211,216	281,74
211,595	284,01
211,975	282,68
212,354	281,19
212,733	282,95
213,113	283,12
213,492	281,99
213,871	282,23
214,25	287,2
214,629	281,82
215,009	283,16
215,388	285,22
215,767	282,81
216,146	285,53
216,525	282,75
216,904	286,56
217,283	285,99
217,662	288,63
218,04	290,91
218,419	290,22
218,798	284,77
219,177	286,24
219,556	289,63
219,934	287,66
220,313	289,03
220,692	288,5
221,07	290,19
221,449	291,43
221,827	291
222,206	290,2
222,584	288,74
222,963	294,99
223,341	291,06
223,72	292,22
224,098	295,82
224,476	292,93
224,855	294,36
225,233	292,47
225,611	297,26
225,99	297,05
226,368	293,05
226,746	292,46
227,124	294,33
227,502	297,7
227,88	296,45
228,258	293,73
228,636	295
229,014	298,75
229,392	298,48
229,77	295,16
230,148	295,44
230,526	294,52
230,903	300,13
231,281	299,06
231,659	299,38
232,037	299,74
232,414	300,37
232,792	298,09
233,169	300,12
233,547	296,33
233,925	302,85
234,302	298,47
234,68	298,9
235,057	301,17
235,434	299,57
235,812	298,09
236,189	302,27
236,566	304,48
236,944	297,78
237,321	301,4
237,698	300,83
238,075	301,86
238,453	304,02
238,83	304,26
239,207	302,77
239,584	301,62
239,961	300,92
240,338	301,24
240,715	299,63
241,092	303,98
241,469	301,03
241,845	306,25
242,222	305,91
242,599	302,77
242,976	303,83
243,353	304,63
243,729	307,98
244,106	300,98
244,483	303,27
244,859	304,8
245,236	306,06
245,612	303,51
245,989	301,96
246,365	307,39
246,742	307,23
247,118	306,83
247,494	306,68
247,871	304,9
248,247	308,98
248,623	307,35
249	302,35
249,376	305,72
249,752	304,39
250,128	306,51
250,504	308,07
250,88	308,28
251,256	304,84
251,632	308,59
252,008	309,54
252,384	308,23
252,76	311,1
253,136	309,1
253,512	309,04
253,888	304,9
254,263	310,33
254,639	311,49
255,015	310,7
255,391	309,42
255,766	313,18
256,142	310,99
256,517	307,67
256,893	311,66
257,269	305,9
257,644	312,85
258,019	310,89
258,395	309,24
258,77	314,05
259,146	307,73
259,521	313,79
259,896	309,15
260,271	314,42
260,647	314,76
261,022	315,13
261,397	314,22
261,772	312,08
262,147	311,66
262,522	310,83
262,897	310,93
263,272	310,23
263,647	311,95
264,022	313,46
264,397	310,99
264,772	313,56
265,147	311,46
265,521	313,6
265,896	313,1
266,271	311,92
266,645	318,04
267,02	315,7
267,395	313,97
267,769	311,55
268,144	316,31
268,518	315,59
268,893	310,61
269,267	314,05
269,642	313,34
270,016	314,66
270,39	311,01
270,765	315,96
271,139	316,12
271,513	317,63
271,887	313,22
272,261	316,67
272,636	318,32
273,01	316,47
273,384	316,3
273,758	313,18
274,132	318,58
274,506	316,18
274,88	314,77
275,254	314,79
275,627	317,66
276,001	318,34
276,375	320,35
276,749	316,84
277,122	311,96
277,496	318,28
277,87	316,2
278,243	316,66
278,617	316,65
278,991	317,11
279,364	316,76
279,738	318,15
280,111	317,31
280,484	321,56
280,858	317,52
281,231	321,57
281,604	318,58
281,978	318,5
282,351	315,96
282,724	319,46
283,097	318,93
283,47	320,73
283,844	320,19
284,217	319,01
284,59	318,85
284,963	321,01
285,336	318,73
285,709	319,3
286,081	321,13
286,454	320,79
286,827	318,62
287,2	317,46
287,573	321,2
287,945	319,04
288,318	318,21
288,691	318,78
289,063	318,51
289,436	324,11
289,808	320,18
290,181	319,29
290,553	316,3
290,926	319,11
291,298	321,05
291,671	324,53
292,043	318,86
292,415	321,11
292,788	318,88
293,16	320,73
293,532	321,34
293,904	322,11
294,276	322,19
294,648	321,34
295,02	322,16
295,392	319,2
295,764	318,27
296,136	323,09
296,508	322,81
296,88	324,08
297,252	325,62
297,624	325,3
297,996	321,42
298,367	320,07
298,739	321,43
299,111	322,04
299,482	322,38
299,854	324,67
300,225	320,54
300,597	325,18
300,968	323,79
301,34	326,23
301,711	323,23
302,083	319,62
302,454	322,75
302,825	325,77
303,197	326,7
303,568	321,56
303,939	323,78
304,31	326,88
304,681	327,22
305,053	325,07
305,424	320,85
305,795	326,22
306,166	322,12
306,537	321,17
306,907	324,92
307,278	324,96
307,649	324,19
308,02	325,88
308,391	330,23
308,762	327,18
309,132	328,52
309,503	327,64
309,874	322,61
310,244	327,46
310,615	327,58
310,985	327,33
311,356	324,49
311,726	323,42
312,097	328,77
312,467	326,78
312,837	329,38
313,208	325,91
313,578	324,25
313,948	326,73
314,318	324,81
314,688	327,48
315,059	330,17
315,429	326,76
315,799	324,64
316,169	326,52
316,539	329,79
316,909	326,15
317,279	325,69
317,649	328,86
318,018	327,64
318,388	332,7
318,758	327,84
319,128	329,87
319,497	330,42
319,867	328,33
320,237	326,95
320,606	325,34
320,976	327,35
321,345	330,25
321,715	326,86
322,084	326,35
322,454	328,91
322,823	330,09
323,192	323,78
323,562	330,95
323,931	327,23
324,3	326,95
324,669	328,92
325,038	329,08
325,407	325,49
325,777	327,63
326,146	323,69
326,515	327,82
326,884	326,82
327,252	324,52
327,621	326,6
327,99	324,52
328,359	331,31
328,728	329,92
329,097	322,86
329,465	327,27
329,834	330,14
330,203	327,72
330,571	328,39
330,94	327,79
331,308	329,15
331,677	330,32
332,045	326,82
332,414	330,74
332,782	326,68
333,15	328,34
333,519	327,17
333,887	329,64
334,255	327,93
334,623	328,07
334,991	329,3
335,36	330
335,728	330,51
336,096	328,34
336,464	327,53
336,832	328,69
337,2	327,49
337,567	330,39
337,935	327,41
338,303	330,93
338,671	331,56
339,039	330,45
339,406	332,06
339,774	327,81
340,142	332,39
340,509	329,05
340,877	328,72
341,244	329,2
341,612	332,04
341,979	329,72
342,347	329,39
342,714	328,49
343,081	329,62
343,449	328,92
343,816	332,31
344,183	332,81
344,55	328,93
344,917	330,91
345,284	322,11
345,652	329,62
346,019	329,63
346,386	328,84
346,753	325,27
347,119	330,97
347,486	332,4
347,853	330,94
348,22	331,23
348,587	332,37
348,953	332,48
349,32	327,82
349,687	329,24
350,053	330,84
350,42	335,41
350,787	328,67
351,153	331,5
351,519	328,71
351,886	327,84
352,252	329,94
352,619	333,42
352,985	330,38
353,351	332,02
353,717	331,56
354,084	328,92
354,45	330,07
354,816	332,04
355,182	329,98
355,548	333,1
355,914	329,8
356,28	333,35
356,646	328,27
357,012	331,35
357,378	332,96
357,743	328,02
358,109	332,54
358,475	333,99
358,841	329,85
359,206	330,76
359,572	332,9
359,938	333,34
360,303	332,71
360,669	330,17
361,034	331,31
361,399	331,87
361,765	330,3
362,13	331,21
362,496	331,46
362,861	330,53
363,226	326,46
363,591	330,63
363,956	332,54
364,322	329,19
364,687	328,3
365,052	331,69
365,417	331,36
365,782	330,88
366,147	331,01
366,511	332,25
366,876	334
367,241	332,19
367,606	335,59
367,971	335,27
368,335	331,4
368,7	331,13
369,065	330,17
369,429	332,22
369,794	329,05
370,158	329,23
370,523	333,66
370,887	330,18
371,251	331,22
371,616	333,19
371,98	335,84
372,344	331,35
372,709	330,49
373,073	334,13
373,437	331,84
373,801	329,57
374,165	334,32
374,529	329,41
374,893	329,3
375,257	328,59
375,621	332,37
375,985	332,57
376,349	333,52
376,713	335,1
377,076	334,13
377,44	331,65
377,804	332,44
378,167	329,27
378,531	333,61
378,894	329,92
379,258	331,64
379,621	333,25
379,985	331,37
380,348	331,7
380,712	330,6
381,075	333,91
381,438	335,69
381,802	331,62
382,165	330,41
382,528	328,77
382,891	331,31
383,254	332,77
383,617	330,25
383,98	328,84
384,343	333,78
384,706	335,54
385,069	333,07
385,432	334,04
385,795	333,95
386,157	334,47
386,52	333,46
386,883	332,25
387,246	336,41
387,608	333,36
387,971	330,21
388,333	328,81
388,696	334,6
389,058	334,7
389,421	332,34
389,783	326,91
390,145	331,38
390,508	335,25
390,87	334,82
391,232	330,27
391,594	327,35
391,956	333,41
392,318	331,5
392,681	332,6
393,043	333,27
393,404	335,54
393,766	333,05
394,128	332,72
394,49	335,22
394,852	331,11
395,214	332,7
395,575	331,72
395,937	333,17
396,299	335,36
396,66	334,45
397,022	335,16
397,384	334,73
397,745	332
398,106	331,4
398,468	333,01
398,829	332,86
399,191	336,21
399,552	336,12
399,913	334,23
400,274	332,3
400,636	334,13
400,997	331,17
401,358	331,48
401,719	330,18
402,08	328,9
402,441	330,59
402,802	333,04
403,163	336
403,523	331,81
403,884	334,82
404,245	329,4
404,606	333,07
404,966	335
405,327	331,81
405,688	329,95
406,048	334,52
406,409	333,48
406,769	331,56
407,13	332,04
407,49	335,65
407,85	331,61
408,211	330,55
408,571	332,1
408,931	336,94
409,291	333,51
409,652	334,51
410,012	336,1
410,372	336,5
410,732	331,27
411,092	333,51
411,452	335,07
411,812	329,33
412,171	332,69
412,531	333,67
412,891	336,12
413,251	334,38
413,61	331,65
413,97	333,44
414,33	330,11
414,689	338,58
415,049	334,13
415,408	333,92
415,768	335,2
416,127	331,69
416,487	333,93
416,846	333,71
417,205	333,88
417,564	335,31
417,924	332,88
418,283	333,08
418,642	335,06
419,001	334,33
419,36	333,13
419,719	331,6
420,078	331,23
420,437	331,98
420,796	331,23
421,155	330,13
421,513	332,07
421,872	332,79
422,231	332,4
422,59	330,71
422,948	336,58
423,307	333
423,665	337,57
424,024	334,32
424,382	334,05
424,741	331,02
425,099	332,34
425,457	333,29
425,816	333,97
426,174	335,66
426,532	328,89
426,89	329,55
427,248	334,04
427,607	330,99
427,965	334,22
428,323	335,34
428,681	333,49
429,038	334,97
429,396	331,97
429,754	333,23
430,112	334,02
430,47	335,73
430,827	333,37
431,185	332,99
431,543	333,78
431,9	332,04
432,258	334,01
432,615	333,96
432,973	329,95
433,33	331,97
433,688	330,74
434,045	330,81
434,402	333,49
434,759	337,51
435,117	333,22
435,474	335,4
435,831	333,74
436,188	333,31
436,545	335,88
436,902	332,68
437,259	338,01
437,616	331,94
437,973	331,23
438,329	331,87
438,686	328,65
439,043	330,3
439,4	333,38
439,756	337,13
440,113	336,08
440,47	336,34
440,826	338,01
441,183	334,08
441,539	334,6
441,895	332,9
442,252	335,25
442,608	333,27
442,964	334,72
443,321	329,97
443,677	336,49
444,033	331,39
444,389	334,14
444,745	335,28
445,101	335,73
445,457	335,94
445,813	332,54
446,169	330,03
446,525	333,27
446,88	328,5
447,236	331,36
447,592	331,68
447,948	331,78
448,303	332,6
448,659	332,16
449,014	331,52
449,37	328,84
449,725	332,13
450,081	332,19
450,436	331,66
450,791	329,6
451,147	334,51
451,502	334,29
451,857	333,82
452,212	330,95
452,567	335,87
452,922	331,97
453,277	335,08
453,632	336,02
453,987	332,22
454,342	332,98
454,697	330,49
455,052	336,01
455,407	333,3
455,761	333,66
456,116	332,64
456,471	330,48
456,825	329,43
457,18	331,51
457,534	334,37
457,889	330,99
458,243	331,19
458,598	328,22
458,952	328,29
459,306	335,05
459,66	330,65
460,015	337,61
460,369	334,99
460,723	329,71
461,077	331,32
461,431	332,93
461,785	334,86
462,139	334,45
462,493	330,68
462,847	335,57
463,201	334,17
463,554	334,85
463,908	334,01
464,262	328,84
464,615	332,51
464,969	334,43
465,322	337,35
465,676	333,57
466,029	333,76
466,383	334,3
466,736	333,42
467,09	331,2
467,443	332,16
467,796	330,69
468,149	328,49
468,502	333,95
468,856	334,25
469,209	334,84
469,562	333,98
469,915	333,36
470,267	333,89
470,62	331,25
470,973	334,29
471,326	331
471,679	334,61
472,031	334,17
472,384	331,61
472,737	331,9
473,089	333,86
473,442	334,39
473,794	333,04
474,147	334,98
474,499	330,64
474,852	331,03
475,204	330,98
475,556	329,33
475,908	330,85
476,261	330,27
476,613	335,17
476,965	334,01
477,317	331,12
477,669	334,13
478,021	332,35
478,373	332,56
478,725	331,58
479,076	335,74
479,428	331,12
479,78	331,32
480,132	332,47
480,483	331,95
480,835	333
481,186	330,89
481,538	334,44
481,889	335,02
482,241	334,67
482,592	333,56
482,944	332,1
483,295	334,96
483,646	332,56
483,997	328,8
484,348	332,36
484,7	335,46
485,051	333,7
485,402	332,88
485,753	332,26
486,104	331,23
486,454	334,84
486,805	330,15
487,156	336,36
487,507	327,5
487,858	331,21
488,208	328,04
488,559	331,03
488,909	330,85
489,26	333,01
489,61	330,54
489,961	331,93
490,311	331,87
490,662	331,47
491,012	333,39
491,362	334,17
491,712	330,89
492,063	335,77
492,413	333,55
492,763	332,62
493,113	332,32
493,463	330,32
493,813	330,84
494,163	340,51
494,512	333,38
494,862	333,51
495,212	335,07
495,562	332,7
495,911	331,93
496,261	334,43
496,611	332,81
496,96	329,98
497,31	328,21
497,659	331,59
498,008	330,99
498,358	333,64
498,707	331,97
499,056	333,16
499,406	330,09
499,755	333,75
500,104	330,8
500,453	330,35
500,802	328,98
501,151	331,36
501,5	333,6
501,849	332,96
502,198	332,85
502,546	334,42
502,895	334,72
503,244	330,65
503,593	334,31
503,941	330,49
504,29	330,74
504,638	332,18
504,987	331,26
505,335	332,27
505,684	332,22
506,032	331,39
506,38	332,03
506,729	334,15
507,077	329,73
507,425	332,39
507,773	329,99
508,121	335,34
508,469	333,38
508,817	335
509,165	331,39
509,513	333,99
509,861	332,48
510,209	331,94
510,556	330,31
510,904	331,94
511,252	329,95
511,599	331,62
511,947	330,74
512,294	333,42
512,642	330,2
512,989	328,39
513,337	333,14
513,684	333,27
514,031	330,89
514,378	334,21
514,726	335,16
515,073	332,72
515,42	330,08
515,767	330,97
516,114	333,09
516,461	332,01
516,808	330,51
517,155	334,13
517,502	331,92
517,848	328,86
518,195	331,92
518,542	334,41
518,888	329,74
519,235	332,84
519,581	330,92
519,928	332,02
520,274	334,38
520,621	331,11
520,967	331,41
521,313	333,82
521,66	331,14
522,006	333,92
522,352	332,99
522,698	330,89
523,044	333,28
523,39	330,96
523,736	334,04
524,082	332,83
524,428	328,11
524,774	330,8
525,12	331,42
525,466	332,33
525,811	331,98
526,157	331,67
526,502	332,72
526,848	332,53
527,194	329,4
527,539	331,87
527,884	331,01
528,23	333,08
528,575	329,99
528,92	327,41
529,266	329,71
529,611	328,94
529,956	334,06
530,301	331,37
530,646	327,17
530,991	330,01
531,336	331,74
531,681	332,08
532,026	333,09
532,371	328,67
532,715	328,51
533,06	333,28
533,405	331,4
533,749	331,85
534,094	333,38
534,438	337,12
534,783	329,95
535,127	329,99
535,472	333,56
535,816	331
536,16	331,38
536,505	329,69
536,849	331,5
537,193	331,68
537,537	332,44
537,881	333,94
538,225	330,57
538,569	333,3
538,913	330,6
539,257	333,03
539,6	332,2
539,944	331,95
540,288	329,21
540,632	332,73
540,975	335,89
541,319	327,58
541,662	331,4
542,006	331,2
542,349	332,98
542,693	333,09
543,036	334,1
543,379	334,79
543,722	332,65
544,066	335,31
544,409	330,12
544,752	335,46
545,095	330,63
545,438	333,17
545,781	336,2
546,124	329,74
546,467	334,32
546,809	330,54
547,152	330,27
547,495	327,78
547,838	329,73
548,18	333,28
548,523	337,91
548,865	331,91
549,208	332,79
549,55	331,63
549,892	331,99
550,235	331,93
550,577	330,35
550,919	327,54
551,261	328,26
551,604	329,67
551,946	336,29
552,288	330,47
552,63	329,9
552,972	329,15
553,313	330,46
553,655	330,21
553,997	329,49
554,339	330,12
554,681	329,81
555,022	337,75
555,364	333,84
555,705	329,46
556,047	332,55
556,388	332,32
556,73	328,04
557,071	330,24
557,412	331,07
557,754	328,61
558,095	333,18
558,436	329,9
558,777	330,25
559,118	332,17
559,459	330,14
559,8	335,26
560,141	329,09
560,482	329,01
560,823	329,52
561,163	330,36
561,504	331,29
561,845	334,6
562,185	331,46
562,526	329,54
562,866	329,48
563,207	330,02
563,547	334,16
563,888	330,03
564,228	328,59
564,568	327,61
564,909	324,66
565,249	328,7
565,589	331,61
565,929	333,14
566,269	327,94
566,609	329,37
566,949	330,31
567,289	333,28
567,629	333,28
567,968	330,98
568,308	328,14
568,648	335,31
568,988	330,34
569,327	332,41
569,667	330,48
570,006	331,96
570,346	328,62
570,685	329,26
571,024	328,81
571,364	335,39
571,703	329,33
572,042	330,69
572,381	327,81
572,72	333,1
573,059	332,35
573,398	332,58
573,737	332,72
574,076	333,61
574,415	329,57
574,754	334,79
575,093	329,71
575,431	327,57
575,77	329,05
576,108	329,91
576,447	327,36
576,786	329,05
577,124	329,16
577,462	330,22
577,801	329,59
578,139	331,4
578,477	330,56
578,815	330,64
579,154	332,97
579,492	330,09
579,83	327,13
580,168	327,26
580,506	329,83
580,844	333,61
581,182	333,7
581,519	325,79
581,857	330,2
582,195	329,89
582,532	323,16
582,87	328,52
583,208	326,94
583,545	331,32
583,883	330,6
584,22	326,56
584,557	329,37
584,895	332,89
585,232	327,58
585,569	334,4
585,906	330,38
586,243	332,27
586,58	332,91
586,917	330,57
587,254	330,66
587,591	330,09
587,928	333,56
588,265	324,78
588,602	330,7
588,938	328,12
589,275	333,71
589,612	328,33
589,948	333,42
590,285	331,5
590,621	328,35
590,957	328,21
591,294	334,04
591,63	332,15
591,966	330,41
592,303	331,96
592,639	329,41
592,975	328,04
593,311	326,66
593,647	332,39
593,983	328,09
594,319	331,59
594,654	331,89
594,99	330,78
595,326	328,06
595,662	333,04
595,997	331,87
596,333	331,61
596,668	329,9
597,004	329,83
597,339	328,28
597,675	326,66
598,01	329,29
598,345	328,2
598,681	330,28
599,016	330,16
599,351	325,86
599,686	327,62
600,021	329,5
600,356	328,53
600,691	328,67
601,026	327,83
601,361	325,16
601,695	331,01
602,03	328,85
602,365	332,58
602,699	332,46
603,034	329,39
603,368	327,68
603,703	327,96
604,037	327,76
604,372	330,74
604,706	327,15
605,04	328,12
605,375	331,15
605,709	327,32
606,043	331,23
606,377	326,49
606,711	330,82
607,045	328,47
607,379	330,37
607,713	330
608,046	329,03
608,38	326,93
608,714	328,79
609,047	323,96
609,381	330,33
609,715	333,64
610,048	326,68
610,382	326,83
610,715	330,48
611,048	329,92
611,382	329,62
611,715	326,28
612,048	331,51
612,381	328,82
612,714	331,22
613,047	326,5
613,38	329,67
613,713	330,88
614,046	328,63
614,379	330,93
614,712	326,66
615,044	326,49
615,377	326,79
615,71	331,78
616,042	328,06
616,375	331,07
616,707	326,51
617,039	328,35
617,372	325,56
617,704	328,81
618,036	331,38
618,369	328,94
618,701	331,59
619,033	328,39
619,365	330,65
619,697	332,56
620,029	331,95
620,361	331,43
620,692	332,22
621,024	328,99
621,356	335,51
621,688	329,87
622,019	332,14
622,351	332,35
622,682	330,75
623,014	329,08
623,345	329,9
623,677	326,84
624,008	329,96
624,339	326,52
624,67	329,62
625,002	330,44
625,333	331,78
625,664	328,6
625,995	329,32
626,326	327,43
626,657	327,83
626,987	332,49
627,318	328,11
627,649	329,23
627,98	327,48
628,31	327,53
628,641	327,83
628,971	327,08
629,302	328,58
629,632	331,4
629,963	328,31
630,293	331,64
630,623	330,93
630,953	333,02
631,284	329,01
631,614	331,6
631,944	331,2
632,274	331,54
632,604	329,17
632,934	328,58
633,263	330,93
633,593	326,46
633,923	327,76
634,253	326,01
634,582	329,8
634,912	331,22
635,241	330,23
635,571	328,87
635,9	327,66
636,23	332,74
636,559	328,02
636,888	326,81
637,217	327,3
637,546	330,63
637,876	329,18
638,205	327,29
638,534	328,39
638,863	328,65
639,191	327,45
639,52	328,82
639,849	325,94
640,178	328,05
640,506	327,38
640,835	327,57
641,164	329,43
641,492	326,59
641,821	327,23
642,149	329,61
642,477	324,78
642,806	329,48
643,134	326,9
643,462	330,74
643,79	329,77
644,118	327,43
644,446	328,17
644,774	329,91
645,102	328,64
645,43	330,93
645,758	327,98
646,086	326,82
646,414	326,35
646,741	328,23
647,069	328,67
647,396	328,67
647,724	329,55
648,051	330,82
648,379	329,29
648,706	329,58
649,033	328,39
649,361	328,98
649,688	327,36
650,015	327,44
650,342	328,54
650,669	327,85
650,996	326,4
651,323	325,49
651,65	324,34
651,976	328,62
652,303	328,24
652,63	330,4
652,957	329,87
653,283	330,91
653,61	327,77
653,936	325,78
654,263	329,9
654,589	328,8
654,915	329,76
655,241	326,17
655,568	327,55
655,894	329,06
656,22	328,96
656,546	327,7
656,872	327,12
657,198	328,76
657,524	328,5
657,85	329,21
658,175	330,64
658,501	329,99
658,827	326,1
659,152	326,87
659,478	327,61
659,803	330,06
660,129	329,9
660,454	330,37
660,78	328,38
661,105	333,92
661,43	329,07
661,755	327,84
662,08	329,67
662,406	328,08
662,731	325,79
663,056	327,44
663,38	324,37
663,705	329,19
664,03	327
664,355	328,01
664,68	327,02
665,004	327,45
665,329	327,79
665,653	324,06
665,978	328,11
666,302	327,98
666,626	332,08
666,951	329,09
667,275	322,93
667,599	324,13
667,923	326,79
668,247	328,08
668,572	325,34
668,895	328,58
669,219	325,98
669,543	329,43
669,867	327,53
670,191	330,4
670,515	328,69
670,838	328,89
671,162	327,7
671,485	329,42
671,809	327,95
672,132	330,52
672,456	326,36
672,779	322,01
673,102	326,48
673,425	331,65
673,749	327,45
674,072	325,75
674,395	325,7
674,718	324,05
675,041	325,19
675,363	329,98
675,686	326,38
676,009	329,73
676,332	329,02
676,654	327,98
676,977	329,63
677,3	328,27
677,622	329,9
677,945	328,72
678,267	327,22
678,589	327,46
678,912	326,27
679,234	328,58
679,556	328,95
679,878	327,04
680,2	325,05
680,522	328,45
680,844	327,5
681,166	330,82
681,488	322,26
681,809	327,24
682,131	328,91
682,453	328,85
682,774	326,79
683,096	329,64
683,417	323,32
683,739	326,03
684,06	326,59
684,382	328,94
684,703	325,76
685,024	328,74
685,345	330,83
685,666	326,89
685,987	325,38
686,308	328,58
686,629	325,67
686,95	325,72
687,271	325,83
687,592	328,47
687,913	324,74
688,233	325,95
688,554	327,8
688,874	324,89
689,195	329,43
689,515	327,24
689,836	327,45
690,156	326,91
690,476	327,67
690,796	327,91
691,117	326,4
691,437	324,85
691,757	325,66
692,077	330,97
692,397	329,53
692,716	326,21
693,036	329,94
693,356	327,26
693,676	326,13
693,995	327,14
694,315	330,93
694,635	330,37
694,954	332,15
695,273	332,64
695,593	324,3
695,912	326,67
696,231	327,74
696,551	329,6
696,87	328,28
697,189	328,91
697,508	326,38
697,827	326,2
698,146	323,98
698,465	330,27
698,783	326,46
699,102	322,76
699,421	324,81
699,739	328,74
700,058	326,4
700,377	325,87
700,695	325,39
701,013	326,49
701,332	322,1
701,65	328,36
701,968	328,71
702,286	323,86
702,605	329,73
702,923	324,7
703,241	325,02
703,559	326,6
703,876	329,02
704,194	330,53
704,512	325,62
704,83	329,74
705,147	325,5
705,465	326,94
705,783	326,1
706,1	328,92
706,418	324,43
706,735	328,57
707,052	327,99
707,37	329,56
707,687	326,25
708,004	322,22
708,321	325,77
708,638	327,68
708,955	325,84
709,272	328,17
709,589	324,01
709,906	324,73
710,222	330,65
710,539	327,27
710,856	325,24
711,172	327,4
711,489	328,58
711,805	325,55
712,122	326,09
712,438	327,77
712,754	326,7
713,071	327,19
713,387	324,57
713,703	327,22
714,019	328,16
714,335	328,33
714,651	326,61
714,967	326,78
715,283	327,02
715,599	328,35
715,914	331,1
716,23	327,74
716,546	328,06
716,861	320,9
717,177	322,65
717,492	325,95
717,807	325,64
718,123	324,12
718,438	326,82
718,753	325,78
719,068	326,59
719,383	328,11
719,698	327,96
720,013	326,81
720,328	327,41
720,643	327,07
720,958	328,43
721,273	326,85
721,587	328,18
721,902	327,49
722,217	326,32
722,531	324,06
722,846	326,72
723,16	326,25
723,474	326,05
723,789	327,77
724,103	332,71
724,417	326,91
724,731	330,75
725,045	324,36
725,359	325,38
725,673	330,7
725,987	325,29
726,301	326,66
726,615	328,5
726,928	325,25
727,242	324,25
727,555	328,65
727,869	329,41
728,182	326,34
728,496	327,65
728,809	329,25
729,122	323,88
729,436	327,62
729,749	321,24
730,062	328,56
730,375	329,05
730,688	326,61
731,001	325,87
731,314	324,49
731,627	325,24
731,939	322,57
732,252	329,39
732,565	329,16
732,877	323,78
733,19	324,78
733,502	321,42
733,815	320,14
734,127	324,22
734,44	327,28
734,752	324,34
735,064	325,13
735,376	327,37
735,688	328,88
736	326,44
736,312	324,64
736,624	327,83
736,936	323,99
737,248	328,07
737,559	327,82
737,871	327,83
738,183	324,16
738,494	327,14
738,806	332,3
739,117	323,58
739,428	322,55
739,74	323,93
740,051	326,07
740,362	324,02
740,673	329
740,984	327,55
741,295	326,88
741,606	321,77
741,917	324,72
742,228	327,52
742,539	322,77
742,849	324,04
743,16	326,56
743,471	329,38
743,781	328,96
744,092	325,23
744,402	325,73
744,712	322,18
745,023	325,01
745,333	323,06
745,643	326,67
745,953	326,88
746,263	323,9
746,573	327,73
746,883	324,44
747,193	326,7
747,503	323,17
747,813	325,02
748,122	325,33
748,432	323,58
748,742	320,28
749,051	322,01
749,361	325,94
749,67	319,94
749,979	326,92
750,289	324,98
750,598	326,29
750,907	323,42
751,216	327,77
751,525	326,78
751,834	327,11
752,143	327,18
752,452	324,25
752,761	326,97
753,07	324,62
753,378	327,07
753,687	326,66
753,996	320,44
754,304	325,39
754,612	327,07
754,921	329,86
755,229	328,34
755,537	326,82
755,846	326,19
756,154	323,48
756,462	327,76
756,77	323,73
757,078	327,57
757,386	326,34
757,694	327,47
758,002	325,38
758,309	323,79
758,617	326,83
758,925	325,76
759,232	325,79
759,54	325,28
759,847	325,67
760,154	325,57
760,462	327,88
760,769	330,05
761,076	326,33
761,383	325,85
761,69	322,71
761,997	325,89
762,304	321,49
762,611	327,01
762,918	323,67
763,225	328,75
763,532	325,31
763,838	324,98
764,145	325,52
764,451	322,62
764,758	321,34
765,064	324,03
765,371	322,9
765,677	322,93
765,983	323,22
766,289	324,64
766,595	324,82
766,901	324,23
767,207	324,12
767,513	324,63
767,819	327,66
768,125	327,56
768,431	322,53
768,736	325,21
769,042	326,76
769,348	320,41
769,653	326,85
769,959	324,63
770,264	325,67
770,569	327,33
770,875	325,41
771,18	324,68
771,485	323,97
771,79	325,83
772,095	327,2
772,4	323,39
772,705	325,54
773,01	326,77
773,314	324,13
773,619	325,03
773,924	323,99
774,228	325,92
774,533	321,39
774,837	323,62
775,142	325,55
775,446	322,41
775,75	326,44
776,055	323,43
776,359	327,71
776,663	327,08
776,967	327,93
777,271	325,95
777,575	326,63
777,879	327,1
778,182	325,66
778,486	323,25
778,79	321,96
779,093	324,94
779,397	326,25
779,701	322,78
780,004	326
780,307	320,74
780,611	324,47
780,914	321,82
781,217	325,45
781,52	321,72
781,823	326,37
782,126	327,24
782,429	325,76
782,732	325,51
783,035	326,23
783,338	323,31
783,64	323,72
783,943	326,29
784,246	324,47
784,548	324,28
784,85	325,87
785,153	325,26
785,455	325,9
785,757	323,41
786,06	324,14
786,362	323,95
786,664	326,26
786,966	327,21
787,268	325,68
787,57	323,16
787,872	325,61
788,173	323,5
788,475	323,71
788,777	323,7
789,078	326,06
789,38	326,19
789,681	321,58
789,983	326,78
790,284	325,95
790,585	327,64
790,886	326,23
791,188	327,25
791,489	324,32
791,79	324,85
792,091	320,82
792,392	322,24
792,692	324,48
792,993	327,07
793,294	321,85
793,595	326,07
793,895	324,06
794,196	321,05
794,496	327,51
794,796	324,09
795,097	326,79
795,397	327,6
795,697	323,41
795,997	322,26
796,298	324,45
796,598	323,28
796,898	322,32
797,197	324,31
797,497	320,82
797,797	320,65
798,097	324,08
798,396	323,63
798,696	325,03
798,996	325,91
799,295	322,66
799,594	323,3
799,894	325,5
800,193	325,04
800,492	327,3
800,791	326,23
801,091	325,65
801,39	320,17
801,689	325,46
801,987	323,14
802,286	323,52
802,585	324,72
802,884	324,17
803,182	325,02
803,481	328,03
803,78	323,11
804,078	327,23
804,376	318,56
804,675	325,03
804,973	323,62
805,271	326,5
805,569	321,68
805,868	325,72
806,166	323,7
806,464	321,36
806,761	324,06
807,059	324,27
807,357	325,5
807,655	322,34
807,952	325,32
808,25	322,87
808,547	323,68
808,845	324,82
809,142	325,29
809,44	323,7
809,737	325,06
810,034	324,77
810,331	323,99
810,628	326,22
810,925	326,18
811,222	321,16
811,519	318,23
811,816	322,84
812,113	321,71
812,41	323,76
812,706	323,75
813,003	325,05
813,299	322,46
813,596	328,03
813,892	326,94
814,188	323,7
814,485	323,92
814,781	326,08
815,077	319,83
815,373	322,37
815,669	325,56
815,965	324,51
816,261	325,38
816,557	328,12
816,852	323,81
817,148	323,29
817,444	325,15
817,739	325,19
818,035	326,48
818,33	325,6
818,626	325,57
818,921	326,48
819,216	324,67
819,511	326,45
819,806	327,08
820,101	324,55
820,396	324,74
820,691	328,87
820,986	324,18
821,281	325,68
821,576	324,08
821,87	321,86
822,165	321,19
822,46	322,48
822,754	322,5
823,048	323,88
823,343	327,53
823,637	326,53
823,931	327,45
824,225	326,48
824,52	323,91
824,814	325,57
825,108	326,01
825,401	325,37
825,695	325,21
825,989	324,59
826,283	324,83
826,576	324,6
826,87	322,01
827,164	320,72
827,457	321,4
827,75	323,23
828,044	324,23
828,337	322,37
828,63	324,87
828,923	321,98
829,216	323,73
829,509	323,85
829,802	323,72
830,095	326,78
830,388	325,54
830,681	323,59
830,973	322,06
831,266	319,75
831,559	325,49
831,851	322,95
832,143	322,45
832,436	325,99
832,728	324,67
833,02	324,21
833,312	320,33
833,605	321,6
833,897	323,72
834,189	326,42
834,48	325,22
834,772	326,43
835,064	326,6
835,356	326,03
835,647	327,88
835,939	324,06
836,231	320,13
836,522	323,91
836,813	325,29
837,105	323,11
837,396	322,69
837,687	324,66
837,978	323,29
838,269	325,12
838,56	322,38
838,851	326,89
839,142	322,22
839,433	324,92
839,724	325,75
840,014	325,35
840,305	327,01
840,595	325,55
840,886	323,5
841,176	321,41
841,467	321,71
841,757	322,65
842,047	320,83
842,337	322,35
842,627	319,31
842,917	323,37
843,207	328,86
843,497	324,15
843,787	326,1
844,077	324,96
844,367	322,2
844,656	321,24
844,946	328,1
845,235	327,58
845,525	321,2
845,814	324,82
846,103	322,59
846,393	325,04
846,682	323,71
846,971	322,51
847,26	326,17
847,549	322,04
847,838	326,05
848,127	323,58
848,415	323,41
848,704	325,02
848,993	323,37
849,281	320,73
849,57	321,79
849,858	325,29
850,147	324,35
850,435	322,3
850,723	325,18
851,011	325,06
851,3	321,74
851,588	321,34
851,876	324,01
852,164	326,62
852,451	322,29
852,739	322,39
853,027	322,78
853,315	322,5
853,602	323,04
853,89	321,72
854,177	322,13
854,465	319,17
854,752	321,91
855,039	324,37
855,326	321,81
855,614	325,5
855,901	320,52
856,188	323,18
856,475	320,22
856,761	318,78
857,048	325,24
857,335	321,97
857,622	323,34
857,908	325,71
858,195	325,01
858,481	325,96
858,768	323,82
859,054	324,72
859,34	325,36
859,626	322,14
859,913	322,08
860,199	323,15
860,485	322,45
860,771	324,77
861,057	323,41
861,342	321,41
861,628	321,23
861,914	321,43
862,199	320,39
862,485	321,72
862,77	323,67
863,056	325,03
863,341	323,25
863,626	320,96
863,912	325,5
864,197	322,65
864,482	321,61
864,767	322,96
865,052	321,36
865,337	319,92
865,622	325,99
865,906	323,23
866,191	321,92
866,476	323,83
866,76	324,03
867,045	325,17
867,329	323,72
867,613	322,94
867,898	321,9
868,182	323,14
868,466	322,84
868,75	322,59
869,034	324,82
869,318	328,68
869,602	320,13
869,886	322,43
870,169	322,65
870,453	324,52
870,737	323,06
871,02	320,68
871,304	321,22
871,587	320,98
871,87	321,2
872,154	322,5
872,437	322,22
872,72	321,22
873,003	321,22
873,286	321,22
