Data from CuSO4_reference_FLMS006191__0__16-09-50-408.txt Node

Date: Fri May 14 16:09:50 MSK 2021
User: margo
Spectrometer: FLMS00619
Trigger mode: 0
Integration Time (sec): 1,000000E-3
Scans to average: 250
Electric dark correction enabled: true
Nonlinearity correction enabled: false
Boxcar width: 0
XAxis mode: Wavelengths
Number of Pixels in Spectrum: 2048
>>>>>Begin Spectral Data<<<<<
179,619	-16,24
180,001	-16,24
180,383	-16,24
180,764	-64,51
181,146	-70,51
181,528	-73,82
181,91	-72,94
182,292	-67,25
182,673	-65,49
183,055	-57,22
183,437	-46,86
183,818	-34,21
184,2	-17,27
184,581	-4,08
184,963	13,28
185,344	28,65
185,726	45,82
186,107	63,74
186,489	77,13
186,87	97,53
187,251	112,98
187,633	131,86
188,014	142,02
188,395	170,13
188,777	219,9
189,158	235,36
189,539	249,67
189,92	257,19
190,301	277,11
190,682	284,49
191,063	291,75
191,444	300,68
191,825	315,55
192,206	323,2
192,587	329,82
192,968	335,59
193,349	338,42
193,73	348,15
194,111	350,91
194,492	352,27
194,872	358,68
195,253	355,43
195,634	357,53
196,014	362,6
196,395	360,38
196,776	363,01
197,156	357,85
197,537	359,14
197,917	359,21
198,298	359,9
198,678	361,39
199,059	356,57
199,439	354,36
199,819	350,05
200,2	351,69
200,58	352,3
200,96	348,59
201,341	345,05
201,721	344,17
202,101	345,2
202,481	342,23
202,861	341,97
203,241	339,5
203,621	337,44
204,001	336,05
204,381	334,37
204,761	333,4
205,141	336,72
205,521	331,7
205,901	329,21
206,281	327,77
206,661	332,56
207,04	331,24
207,42	330,67
207,8	330,02
208,18	329,43
208,559	328,15
208,939	331,32
209,318	332,1
209,698	328,05
210,077	329,97
210,457	328,54
210,836	321,54
211,216	332,58
211,595	330,6
211,975	332,78
212,354	331,68
212,733	335,18
213,113	332,3
213,492	332,42
213,871	332,51
214,25	334,47
214,629	330,47
215,009	335,07
215,388	336,23
215,767	338,15
216,146	336,52
216,525	336
216,904	341,37
217,283	339,19
217,662	338,93
218,04	337,8
218,419	338
218,798	340,16
219,177	338,72
219,556	341,49
219,934	340,19
220,313	340,05
220,692	345,87
221,07	341,37
221,449	342,57
221,827	344,7
222,206	343,76
222,584	342,89
222,963	341,66
223,341	345,08
223,72	345,72
224,098	343,54
224,476	344,02
224,855	346,2
225,233	345,78
225,611	340,93
225,99	346,03
226,368	348,27
226,746	347,55
227,124	344,37
227,502	349,81
227,88	346,63
228,258	349,05
228,636	346,64
229,014	349,93
229,392	345,24
229,77	347,25
230,148	348,91
230,526	348,3
230,903	347,45
231,281	345,73
231,659	347,52
232,037	350,11
232,414	349,2
232,792	350,9
233,169	352,04
233,547	351,85
233,925	349,58
234,302	349,36
234,68	352,37
235,057	351,86
235,434	350,55
235,812	353,56
236,189	352,78
236,566	348,42
236,944	353,02
237,321	350,74
237,698	350,12
238,075	354,96
238,453	352,71
238,83	355,88
239,207	351,46
239,584	352,69
239,961	355,77
240,338	357,19
240,715	353,07
241,092	354,1
241,469	354,37
241,845	357,19
242,222	353,23
242,599	357,45
242,976	354,63
243,353	357,11
243,729	357,87
244,106	358,71
244,483	355,33
244,859	360,75
245,236	359,7
245,612	352,26
245,989	355,54
246,365	359,42
246,742	360,33
247,118	358,21
247,494	361,29
247,871	359,82
248,247	356,25
248,623	361,8
249	360,19
249,376	361,41
249,752	359,88
250,128	358,78
250,504	360,08
250,88	360,18
251,256	364,46
251,632	357,99
252,008	362,11
252,384	363
252,76	361,83
253,136	362,47
253,512	362,7
253,888	361,53
254,263	361,31
254,639	363,38
255,015	365,6
255,391	364,81
255,766	365,64
256,142	363,74
256,517	366,65
256,893	364,55
257,269	368,66
257,644	363,69
258,019	363,97
258,395	368,29
258,77	363,34
259,146	366,96
259,521	365,48
259,896	368,24
260,271	371,58
260,647	367,24
261,022	367,34
261,397	366,65
261,772	365,3
262,147	364,64
262,522	366,88
262,897	364,48
263,272	364,9
263,647	365,13
264,022	368,61
264,397	364,73
264,772	370,26
265,147	367,54
265,521	369,7
265,896	367,6
266,271	368,14
266,645	372,93
267,02	370,8
267,395	371,06
267,769	369,73
268,144	367,4
268,518	368,21
268,893	368,91
269,267	366,88
269,642	372,02
270,016	374,44
270,39	374,14
270,765	370,63
271,139	375,95
271,513	370,41
271,887	374,19
272,261	373,11
272,636	371,62
273,01	376,41
273,384	371,8
273,758	373,01
274,132	373,6
274,506	373,74
274,88	373,03
275,254	374,6
275,627	371,1
276,001	374,04
276,375	370,64
276,749	373,46
277,122	376,41
277,496	377,02
277,87	373,86
278,243	369,46
278,617	373,09
278,991	372,77
279,364	376,34
279,738	374,62
280,111	374,6
280,484	373,87
280,858	372,77
281,231	372,68
281,604	373,06
281,978	375,33
282,351	378,19
282,724	378,97
283,097	377,54
283,47	375,79
283,844	378,32
284,217	375,85
284,59	372,9
284,963	380,83
285,336	376,33
285,709	377,51
286,081	379,24
286,454	378,57
286,827	379,69
287,2	378,67
287,573	378,04
287,945	378,08
288,318	381,38
288,691	377,29
289,063	379,66
289,436	379,75
289,808	379,87
290,181	375,56
290,553	377,95
290,926	380,2
291,298	381,3
291,671	379,74
292,043	377,6
292,415	377,71
292,788	377,35
293,16	382,16
293,532	376,9
293,904	380,11
294,276	378,73
294,648	380,06
295,02	383,37
295,392	381,02
295,764	384,71
296,136	381,32
296,508	381,77
296,88	380,27
297,252	380,21
297,624	381,14
297,996	381,86
298,367	386,25
298,739	383,03
299,111	383,63
299,482	384,3
299,854	380,98
300,225	381,59
300,597	380,76
300,968	383,32
301,34	379,31
301,711	382,65
302,083	385,86
302,454	383,73
302,825	385,78
303,197	384,71
303,568	385,96
303,939	387,26
304,31	380,3
304,681	383,67
305,053	379,5
305,424	387,55
305,795	385,66
306,166	385,77
306,537	385,86
306,907	385,53
307,278	380,96
307,649	378,03
308,02	391,49
308,391	385,6
308,762	386,32
309,132	381,35
309,503	388,06
309,874	384,77
310,244	384,53
310,615	387,95
310,985	388,68
311,356	387,15
311,726	387,1
312,097	385,19
312,467	386,4
312,837	386,66
313,208	388,38
313,578	384,72
313,948	386,24
314,318	385,48
314,688	387,08
315,059	386,85
315,429	382,99
315,799	383,75
316,169	382,71
316,539	381,64
316,909	388,29
317,279	386,26
317,649	381,49
318,018	387,27
318,388	391,41
318,758	389,15
319,128	389,72
319,497	392,44
319,867	392,31
320,237	394,25
320,606	393,39
320,976	391,84
321,345	386,94
321,715	391,36
322,084	391,13
322,454	387,5
322,823	386,12
323,192	390,5
323,562	390,81
323,931	387,51
324,3	384,3
324,669	390,35
325,038	390,53
325,407	389,01
325,777	391,64
326,146	389,96
326,515	385,48
326,884	384,49
327,252	390,14
327,621	391,18
327,99	390,96
328,359	395,79
328,728	393,17
329,097	392,3
329,465	392,63
329,834	390,55
330,203	391,49
330,571	392,06
330,94	393,26
331,308	389,6
331,677	390,32
332,045	389,28
332,414	389,06
332,782	392,23
333,15	391,19
333,519	390,82
333,887	390,63
334,255	391,83
334,623	392,87
334,991	392,07
335,36	390,54
335,728	389,01
336,096	389,28
336,464	391,61
336,832	390,03
337,2	392,8
337,567	394,01
337,935	393,4
338,303	396,05
338,671	395,02
339,039	393,53
339,406	395,14
339,774	391,98
340,142	394,46
340,509	394,1
340,877	395,1
341,244	392,8
341,612	393,9
341,979	395,43
342,347	396,74
342,714	389,59
343,081	395,83
343,449	391,54
343,816	395,33
344,183	391
344,55	391,75
344,917	390,64
345,284	392,31
345,652	392,21
346,019	394,1
346,386	394,17
346,753	400,87
347,119	395,15
347,486	396,15
347,853	395,42
348,22	398,11
348,587	395,69
348,953	395,04
349,32	395,9
349,687	396,84
350,053	396,01
350,42	393,38
350,787	399,29
351,153	395,01
351,519	396,83
351,886	397,77
352,252	395,79
352,619	397,11
352,985	395,04
353,351	398,67
353,717	397,14
354,084	397,27
354,45	396,46
354,816	398,07
355,182	399,74
355,548	398,11
355,914	398,22
356,28	394,31
356,646	397,95
357,012	398,29
357,378	397,79
357,743	401,73
358,109	397,7
358,475	397,19
358,841	404,07
359,206	399,36
359,572	398,84
359,938	404,04
360,303	399,82
360,669	396,89
361,034	402,69
361,399	395,6
361,765	401,34
362,13	404,29
362,496	403,51
362,861	403,01
363,226	399,54
363,591	397,12
363,956	396,78
364,322	399,58
364,687	397,54
365,052	406,94
365,417	400,66
365,782	401,45
366,147	404,02
366,511	400,57
366,876	404,35
367,241	407,29
367,606	404,89
367,971	403,98
368,335	406,46
368,7	407,81
369,065	408,09
369,429	404,56
369,794	406,34
370,158	408,12
370,523	410,53
370,887	407,82
371,251	407,97
371,616	406,63
371,98	405,52
372,344	408,78
372,709	412,53
373,073	409,25
373,437	408,94
373,801	409,9
374,165	407,74
374,529	406,52
374,893	408,31
375,257	408,4
375,621	411,77
375,985	412,05
376,349	410,47
376,713	414,6
377,076	410,64
377,44	415,13
377,804	416,25
378,167	415,04
378,531	418,26
378,894	417,96
379,258	419,13
379,621	415,55
379,985	419,76
380,348	421,45
380,712	425,51
381,075	421,99
381,438	423,19
381,802	430,42
382,165	430,31
382,528	434,41
382,891	432,6
383,254	437,48
383,617	440,35
383,98	453,01
384,343	457,69
384,706	462,54
385,069	467,56
385,432	476,31
385,795	486,17
386,157	497,05
386,52	504,96
386,883	516,67
387,246	529,09
387,608	538,49
387,971	548,65
388,333	559,83
388,696	560,76
389,058	580,23
389,421	593,2
389,783	601,31
390,145	611,95
390,508	622,79
390,87	636,7
391,232	650,91
391,594	668,62
391,956	690,25
392,318	713,11
392,681	736,78
393,043	765,54
393,404	806,75
393,766	842,92
394,128	894,86
394,49	948,86
394,852	1003,79
395,214	1075,4
395,575	1159,51
395,937	1254,72
396,299	1364,1
396,66	1459,35
397,022	1570,77
397,384	1703,46
397,745	1837,47
398,106	1961,73
398,468	2102,59
398,829	2202,1
399,191	2311,34
399,552	2402,19
399,913	2452,25
400,274	2484,96
400,636	2517,4
400,997	2514,99
401,358	2509
401,719	2487,2
402,08	2468,54
402,441	2460,04
402,802	2450,6
403,163	2433,78
403,523	2459,7
403,884	2469,86
404,245	2510,94
404,606	2532,87
404,966	2568,13
405,327	2630,9
405,688	2675,79
406,048	2747,9
406,409	2809,45
406,769	2891,35
407,13	2951,75
407,49	3034,63
407,85	3144,05
408,211	3201,83
408,571	3293,82
408,931	3361,12
409,291	3434,01
409,652	3472,27
410,012	3518,97
410,372	3539,99
410,732	3577,81
411,092	3583,6
411,452	3582,82
411,812	3627,83
412,171	3582,03
412,531	3588,76
412,891	3571,95
413,251	3591,32
413,61	3555,29
413,97	3522,82
414,33	3546,83
414,689	3548,33
415,049	3532,3
415,408	3504,43
415,768	3500,07
416,127	3508,94
416,487	3540,76
416,846	3570,9
417,205	3572,23
417,564	3588,33
417,924	3647,24
418,283	3661,82
418,642	3689,26
419,001	3734,65
419,36	3771,95
419,719	3833,01
420,078	3891,19
420,437	3927,51
420,796	4031,13
421,155	4023,72
421,513	4081,19
421,872	4130,93
422,231	4200,14
422,59	4245,75
422,948	4255,82
423,307	4316,57
423,665	4355,88
424,024	4419,35
424,382	4462,89
424,741	4503,05
425,099	4580,6
425,457	4578,79
425,816	4628,52
426,174	4676,41
426,532	4696,01
426,89	4741,05
427,248	4743,56
427,607	4880,74
427,965	4871,88
428,323	4869,67
428,681	4950,38
429,038	4961,6
429,396	5014,19
429,754	5139,53
430,112	5095,48
430,47	5255,67
430,827	5228,82
431,185	5274,08
431,543	5315,6
431,9	5423,22
432,258	5521,17
432,615	5590,96
432,973	5563,97
433,33	5717,28
433,688	5760,35
434,045	5790,51
434,402	5896,89
434,759	5990,41
435,117	6057,68
435,474	6189,35
435,831	6150,51
436,188	6291,69
436,545	6244,02
436,902	6341,27
437,259	6388,98
437,616	6482,03
437,973	6518,43
438,329	6522,33
438,686	6599,06
439,043	6623,26
439,4	6716,13
439,756	6737,87
440,113	6753,11
440,47	6850,2
440,826	6851,1
441,183	6850,15
441,539	6880,23
441,895	6906,96
442,252	6909,68
442,608	7021,37
442,964	6999,15
443,321	7016,85
443,677	7002,57
444,033	7018,81
444,389	7103,46
444,745	7121,16
445,101	7151,74
445,457	7167,8
445,813	7205,37
446,169	7204,23
446,525	7252,64
446,88	7313,93
447,236	7326,29
447,592	7381,85
447,948	7450,53
448,303	7598,8
448,659	7530,41
449,014	7639,71
449,37	7732,44
449,725	7694,09
450,081	7737,79
450,436	7855,74
450,791	7936,7
451,147	7981,3
451,502	7927,35
451,857	7950,51
452,212	8133,98
452,567	8150,24
452,922	8166,36
453,277	8250,91
453,632	8295,96
453,987	8421,53
454,342	8409,09
454,697	8462,29
455,052	8372,66
455,407	8551,66
455,761	8604,17
456,116	8511,2
456,471	8721,74
456,825	8727,64
457,18	8774,58
457,534	8928,05
457,889	8721,85
458,243	8961
458,598	8968,36
458,952	9057,15
459,306	9078,15
459,66	9102,73
460,015	9045,56
460,369	9380,26
460,723	9315,26
461,077	9440,83
461,431	9403,34
461,785	9619,67
462,139	9661,99
462,493	9674,19
462,847	9836,28
463,201	9904,72
463,554	10084,9
463,908	10138,59
464,262	10160,68
464,615	10527,77
464,969	10426,2
465,322	10598,8
465,676	10774,15
466,029	10843,16
466,383	11125,29
466,736	11103,75
467,09	11265,09
467,443	11384,69
467,796	11533,35
468,149	11671,98
468,502	11916,59
468,856	11959,92
469,209	12135,78
469,562	12265,77
469,915	12484,3
470,267	12588,67
470,62	12857,59
470,973	13009,27
471,326	13149,75
471,679	13319,23
472,031	13589,31
472,384	13659,89
472,737	13978,54
473,089	14089,29
473,442	14409,44
473,794	14575,27
474,147	14751,32
474,499	14912,22
474,852	15111,1
475,204	15284,27
475,556	15501,37
475,908	15816,18
476,261	16011,8
476,613	16220,57
476,965	16501,42
477,317	16767,91
477,669	16888,11
478,021	17201,91
478,373	17286,92
478,725	17660,07
479,076	17914,1
479,428	18082,38
479,78	18324,53
480,132	18604,66
480,483	18743,22
480,835	19117,5
481,186	19255,29
481,538	19552,79
481,889	19855,42
482,241	19996,41
482,592	20337,12
482,944	20574,34
483,295	20765,89
483,646	21067,63
483,997	21329,59
484,348	21525,73
484,7	21691,81
485,051	22095,38
485,402	22212,43
485,753	22417,06
486,104	22703,4
486,454	22791,3
486,805	23065,79
487,156	23266,18
487,507	23465,05
487,858	23669,81
488,208	23904,29
488,559	23971,91
488,909	24364,52
489,26	24443,25
489,61	24755,4
489,961	24791,36
490,311	25025,78
490,662	25221,56
491,012	25431,33
491,362	25483,04
491,712	25535,48
492,063	25743,62
492,413	25839,64
492,763	26075,27
493,113	26055,84
493,463	26290,17
493,813	26535,99
494,163	26670,2
494,512	26730,7
494,862	26875,53
495,212	26955,49
495,562	27042,33
495,911	27183,05
496,261	27325,68
496,611	27411,9
496,96	27395,05
497,31	27603,06
497,659	27520,95
498,008	27503,07
498,358	27772,52
498,707	27825,15
499,056	28135,51
499,406	28007,46
499,755	28110,09
500,104	28107,72
500,453	28160,62
500,802	28183,98
501,151	28326,98
501,5	28379,47
501,849	28464,77
502,198	28671,27
502,546	28831,33
502,895	28789,57
503,244	29025,81
503,593	29018,8
503,941	29419,22
504,29	29544,56
504,638	29452,97
504,987	29649,63
505,335	29828,99
505,684	29850,14
506,032	29969,65
506,38	30135,99
506,729	30237,57
507,077	30396,54
507,425	30571,53
507,773	30741,01
508,121	30887,1
508,469	30784,97
508,817	31194,68
509,165	31325,88
509,513	31389,2
509,861	31551,65
510,209	31702,52
510,556	31799,87
510,904	31883,3
511,252	32236,64
511,599	32262,31
511,947	32639,66
512,294	32727,38
512,642	32825,72
512,989	33244,55
513,337	33145,22
513,684	33561,4
514,031	33608,14
514,378	33753,37
514,726	33932,71
515,073	34162,49
515,42	34372,19
515,767	34528,86
516,114	34653,68
516,461	34791,46
516,808	34871,91
517,155	35211,77
517,502	35505,11
517,848	35471,07
518,195	35749,42
518,542	36118,22
518,888	36250,17
519,235	36539,01
519,581	36490,53
519,928	36801,46
520,274	36750,06
520,621	37085,57
520,967	37238,62
521,313	37463,4
521,66	37698,19
522,006	37798,82
522,352	37896,91
522,698	38026,05
523,044	38300,7
523,39	38544,94
523,736	38549,39
524,082	38717,41
524,428	38909,33
524,774	38974,46
525,12	39138,03
525,466	39482,28
525,811	39349,45
526,157	39469,52
526,502	39576,18
526,848	39520,78
527,194	39842,34
527,539	40023,02
527,884	40190,05
528,23	40161,48
528,575	40544,35
528,92	40585,45
529,266	40450,86
529,611	40564,83
529,956	40757,19
530,301	41017,9
530,646	41088,23
530,991	41103,47
531,336	41260,7
531,681	41535,96
532,026	41328,51
532,371	41104,87
532,715	41256,02
533,06	41310,71
533,405	41260,54
533,749	41501,51
534,094	41340,17
534,438	41553,68
534,783	41553,46
535,127	41622,06
535,472	41439,93
535,816	41605,51
536,16	41659,62
536,505	41776,32
536,849	41950,7
537,193	42203,8
537,537	42145,65
537,881	42141,5
538,225	42137,27
538,569	42045,76
538,913	42419,67
539,257	42207,44
539,6	42397,92
539,944	42666,97
540,288	42430,01
540,632	42685,33
540,975	42682,9
541,319	42815,8
541,662	42959,82
542,006	43191,01
542,349	42999,26
542,693	42995,05
543,036	43101,16
543,379	43176,36
543,722	43283,58
544,066	43447,56
544,409	43730,45
544,752	43916,48
545,095	44078,38
545,438	44043,04
545,781	44345,06
546,124	44286,23
546,467	44551,65
546,809	44579,91
547,152	44652,27
547,495	45008,35
547,838	44902,62
548,18	45236,35
548,523	45393,82
548,865	45455,03
549,208	45620,54
549,55	46001,18
549,892	46061,22
550,235	46237,32
550,577	46280,27
550,919	46700,05
551,261	46561,13
551,604	46968,93
551,946	47036,64
552,288	47393,11
552,63	47465,77
552,972	47665,77
553,313	48016,62
553,655	48046,4
553,997	48120,95
554,339	48159,62
554,681	48311,24
555,022	48541,54
555,364	48877
555,705	48982,78
556,047	49251,37
556,388	49176,68
556,73	49630,32
557,071	49527,52
557,412	49613,85
557,754	49752,73
558,095	49937,42
558,436	49978,64
558,777	50201,36
559,118	50270,45
559,459	50534,33
559,8	50444,84
560,141	50667,26
560,482	50787,76
560,823	51159,8
561,163	51044,38
561,504	51375,69
561,845	51260,82
562,185	51340,38
562,526	51410,48
562,866	51683,98
563,207	51663,5
563,547	51832,96
563,888	51780,39
564,228	52078,17
564,568	52103,89
564,909	52163,71
565,249	52163,8
565,589	52233,41
565,929	52150,19
566,269	52166,88
566,609	52213,91
566,949	52265,62
567,289	52313,31
567,629	52136,09
567,968	52404,53
568,308	52500,17
568,648	52400,08
568,988	52450,83
569,327	52300,82
569,667	52091,51
570,006	52299,53
570,346	52221,73
570,685	52222,49
571,024	52614,44
571,364	52231,43
571,703	52553,15
572,042	52340,21
572,381	52352,44
572,72	52327,28
573,059	52150,16
573,398	51922,49
573,737	52056,85
574,076	51876,62
574,415	52057,06
574,754	51810,76
575,093	51875,25
575,431	51815,99
575,77	51854,74
576,108	51865,53
576,447	51826,98
576,786	51711,64
577,124	51703,11
577,462	51739,86
577,801	51567,87
578,139	51902,88
578,477	51732,79
578,815	51777,26
579,154	51626,51
579,492	51951
579,83	51639,7
580,168	51764,82
580,506	51574,49
580,844	51704,33
581,182	51475,95
581,519	51502,88
581,857	51260,18
582,195	51315,16
582,532	51364,64
582,87	51356,81
583,208	51463,87
583,545	51258,17
583,883	51457,26
584,22	51315,67
584,557	51535,41
584,895	51203,25
585,232	51402,2
585,569	51305,25
585,906	51526,87
586,243	51208,88
586,58	51078,08
586,917	51014,55
587,254	50891,51
587,591	50976,94
587,928	50812,85
588,265	51106,32
588,602	51284,76
588,938	51773,78
589,275	51811,57
589,612	51881,67
589,948	51317,99
590,285	50745,02
590,621	50609,8
590,957	50287,62
591,294	50192,32
591,63	50003,57
591,966	50251,6
592,303	50098,96
592,639	50259,32
592,975	50272,73
593,311	50204,89
593,647	50146,68
593,983	49766,46
594,319	49833,9
594,654	49591,71
594,99	49671,79
595,326	49382,16
595,662	49685,39
595,997	49381,51
596,333	49323,84
596,668	49065,65
597,004	48974,37
597,339	49076,46
597,675	48827,71
598,01	48934,32
598,345	48549,17
598,681	48661,74
599,016	48311,42
599,351	48334,81
599,686	48309,8
600,021	48184
600,356	48225,44
600,691	47981,8
601,026	48084,37
601,361	47853,14
601,695	48094,22
602,03	47672,76
602,365	47378,89
602,699	47290,31
603,034	47063,3
603,368	47119,43
603,703	47010,04
604,037	46802,4
604,372	46723,65
604,706	46463,61
605,04	46606,25
605,375	46155
605,709	46221,34
606,043	45990,7
606,377	45831,74
606,711	45787,75
607,045	45654,92
607,379	45994,23
607,713	45502,46
608,046	45426,9
608,38	45410,86
608,714	45223,27
609,047	45121,81
609,381	44753,93
609,715	44775,1
610,048	44428,77
610,382	44723,42
610,715	44508,9
611,048	44559,51
611,382	44473,32
611,715	44489,36
612,048	44292,62
612,381	44028,03
612,714	44345,54
613,047	44213,03
613,38	44026,43
613,713	44272,52
614,046	44122,21
614,379	44077,63
614,712	43726,94
615,044	43895,51
615,377	44046,48
615,71	43836,32
616,042	43934,87
616,375	43887,66
616,707	43857,07
617,039	43864,58
617,372	43636,7
617,704	43619,22
618,036	43581,84
618,369	43505,52
618,701	43370,76
619,033	43242,88
619,365	43308,75
619,697	42991,99
620,029	43057,54
620,361	42806,32
620,692	42890,42
621,024	42977,97
621,356	42642,46
621,688	42663,31
622,019	42863,64
622,351	42443,66
622,682	42761,01
623,014	42255,88
623,345	42248,99
623,677	42084,33
624,008	42147,66
624,339	42179,44
624,67	42085,09
625,002	42281,9
625,333	42113,04
625,664	42127,97
625,995	41994,8
626,326	42196,26
626,657	42299,46
626,987	42431,66
627,318	42294,23
627,649	42362,06
627,98	42234,81
628,31	42439,29
628,641	42349,76
628,971	42472,25
629,302	42473,21
629,632	42712,26
629,963	42690,27
630,293	42696,39
630,623	42570,14
630,953	42742,32
631,284	42931,09
631,614	42637,34
631,944	42869,9
632,274	43063,14
632,604	43052,23
632,934	42900,19
633,263	42754,4
633,593	43037,99
633,923	43143,35
634,253	43255,16
634,582	43371,51
634,912	43223,97
635,241	43459,16
635,571	43536,29
635,9	43344,94
636,23	43351,19
636,559	43292,8
636,888	43353,98
637,217	43300,65
637,546	43316,23
637,876	43453,09
638,205	43512,54
638,534	43327,4
638,863	43482,07
639,191	43375,27
639,52	43328,12
639,849	43375,79
640,178	43424,15
640,506	43490,06
640,835	43400,66
641,164	43396,66
641,492	43370,35
641,821	43396,35
642,149	43137,34
642,477	42895,08
642,806	42657,82
643,134	42193,47
643,462	41775,87
643,79	41854,28
644,118	41522,33
644,446	41650,28
644,774	41737,51
645,102	42008,01
645,43	42022,27
645,758	41950,22
646,086	41846,97
646,414	41799,4
646,741	41733,12
647,069	41693,79
647,396	41451,82
647,724	41522,89
648,051	41699,01
648,379	41536,79
648,706	41583,05
649,033	41489,48
649,361	41283,62
649,688	41208,07
650,015	41053,27
650,342	40906,46
650,669	40539,51
650,996	40357,48
651,323	40205,03
651,65	40269,12
651,976	39989,29
652,303	39818,67
652,63	39886,1
652,957	39593,94
653,283	39687,8
653,61	39503,62
653,936	39495,93
654,263	39157,81
654,589	38943,73
654,915	38827,64
655,241	38549,53
655,568	38232,96
655,894	38124,98
656,22	38017,67
656,546	37666,81
656,872	37645,8
657,198	37478,63
657,524	37420,72
657,85	37269,16
658,175	37034,87
658,501	36831,5
658,827	36631,45
659,152	36141,97
659,478	35921,88
659,803	35595,23
660,129	35415,71
660,454	35096,27
660,78	34990,9
661,105	34680,34
661,43	34567,61
661,755	34159,09
662,08	34037,29
662,406	33683,34
662,731	33446,18
663,056	33191,94
663,38	32885,82
663,705	32584,24
664,03	32087,74
664,355	31611,86
664,68	31501,72
665,004	31118,57
665,329	30841,43
665,653	30506,74
665,978	30211,01
666,302	29992,52
666,626	29711,12
666,951	29424,06
667,275	29145,66
667,599	28774,46
667,923	28559,73
668,247	28033,39
668,572	27881,63
668,895	27509,28
669,219	27096,9
669,543	26850,07
669,867	26587,96
670,191	26462,44
670,515	26321,58
670,838	25942,24
671,162	25510,63
671,485	24885,7
671,809	24389,98
672,132	24013,91
672,456	23653,56
672,779	23263,88
673,102	22846,82
673,425	22588,33
673,749	22192,27
674,072	21920,82
674,395	21566,9
674,718	21282,87
675,041	20911,07
675,363	20677,93
675,686	20338,35
676,009	19944,98
676,332	19726,03
676,654	19408,68
676,977	19040,37
677,3	18657,26
677,622	18416,86
677,945	18083,54
678,267	17785,27
678,589	17531,86
678,912	17135,4
679,234	16780
679,556	16510,1
679,878	16196,4
680,2	15853,49
680,522	15590,22
680,844	15335,7
681,166	15053,57
681,488	14900,94
681,809	14558,86
682,131	14355,88
682,453	14155,54
682,774	13831,55
683,096	13589,18
683,417	13413,85
683,739	13153,03
684,06	12918,7
684,382	12706,29
684,703	12536,31
685,024	12230,76
685,345	12096,48
685,666	11814,68
685,987	11527,83
686,308	11362,43
686,629	11124,28
686,95	10933,64
687,271	10773,85
687,592	10572,29
687,913	10379,84
688,233	10157,26
688,554	10008,9
688,874	9822,26
689,195	9636,13
689,515	9523,27
689,836	9315,07
690,156	9151,8
690,476	9019,56
690,796	8814,38
691,117	8711,86
691,437	8545,95
691,757	8430,56
692,077	8235,04
692,397	8145,11
692,716	7982,92
693,036	7845,89
693,356	7687,35
693,676	7621,33
693,995	7453,5
694,315	7345,25
694,635	7282,24
694,954	7132,64
695,273	7003,62
695,593	6933,79
695,912	6814,11
696,231	6698,36
696,551	6601,77
696,87	6520,52
697,189	6380,06
697,508	6276,38
697,827	6200,29
698,146	6076,74
698,465	5990,02
698,783	5910,85
699,102	5813,46
699,421	5716,4
699,739	5673,18
700,058	5582,08
700,377	5466,57
700,695	5410,56
701,013	5346,62
701,332	5271,56
701,65	5184,22
701,968	5145,22
702,286	5061,5
702,605	4995,26
702,923	4937,8
703,241	4844,63
703,559	4801,41
703,876	4739,26
704,194	4675,15
704,512	4605,35
704,83	4551,91
705,147	4536,68
705,465	4459,91
705,783	4374,42
706,1	4362,47
706,418	4324,83
706,735	4238,24
707,052	4214,32
707,37	4151,53
707,687	4097,1
708,004	4038,18
708,321	4006,6
708,638	3974,26
708,955	3906,95
709,272	3868,55
709,589	3861,21
709,906	3780,72
710,222	3740,15
710,539	3703,87
710,856	3667,08
711,172	3591,41
711,489	3567,37
711,805	3527,09
712,122	3487,64
712,438	3439,91
712,754	3409,74
713,071	3384,24
713,387	3337,88
713,703	3310,36
714,019	3286,62
714,335	3239,5
714,651	3196,76
714,967	3175,08
715,283	3135,09
715,599	3098,03
715,914	3086,74
716,23	3042,78
716,546	2987,12
716,861	2952,94
717,177	2925,59
717,492	2885,77
717,807	2843,89
718,123	2836,5
718,438	2798,06
718,753	2748,28
719,068	2719,85
719,383	2700,53
719,698	2651,95
720,013	2627,22
720,328	2597,72
720,643	2579,5
720,958	2539,77
721,273	2508,02
721,587	2496,1
721,902	2469,55
722,217	2437,18
722,531	2413,78
722,846	2391,74
723,16	2356,22
723,474	2341,06
723,789	2318,54
724,103	2296,07
724,417	2262,67
724,731	2248,23
725,045	2232,45
725,359	2178,47
725,673	2148,6
725,987	2110,79
726,301	2082,81
726,615	2050,07
726,928	2037,89
727,242	2056,27
727,555	2033,34
727,869	2023,89
728,182	2026,45
728,496	2015,39
728,809	1999,87
729,122	1973,23
729,436	1960,35
729,749	1947,62
730,062	1925,8
730,375	1913,43
730,688	1896,08
731,001	1877,08
731,314	1834,34
731,627	1829,75
731,939	1817,43
732,252	1791,34
732,565	1757,16
732,877	1749,85
733,19	1730,88
733,502	1705,71
733,815	1677,13
734,127	1665,68
734,44	1654,72
734,752	1628,7
735,064	1613,37
735,376	1600,58
735,688	1591,77
736	1574,71
736,312	1565,31
736,624	1557,64
736,936	1537,8
737,248	1522
737,559	1515,49
737,871	1516,93
738,183	1498,82
738,494	1495,18
738,806	1494,09
739,117	1481,43
739,428	1467,72
739,74	1462,24
740,051	1456,68
740,362	1445,3
740,673	1427,74
740,984	1430,54
741,295	1422,24
741,606	1412,37
741,917	1400,39
742,228	1397,59
742,539	1388,05
742,849	1376,63
743,16	1380
743,471	1376,75
743,781	1364,66
744,092	1356,11
744,402	1348,16
744,712	1342,61
745,023	1328,98
745,333	1324,14
745,643	1320,19
745,953	1307,64
746,263	1313,28
746,573	1294,03
746,883	1286,93
747,193	1285
747,503	1263,84
747,813	1252,56
748,122	1242,05
748,432	1239,42
748,742	1223,5
749,051	1210,82
749,361	1201,61
749,67	1192,15
749,979	1179,29
750,289	1168,68
750,598	1164,94
750,907	1158,1
751,216	1141,48
751,525	1130,36
751,834	1129,2
752,143	1115,58
752,452	1102,95
752,761	1090,8
753,07	1089,81
753,378	1082,25
753,687	1069,3
753,996	1060,79
754,304	1059
754,612	1046,94
754,921	1033,9
755,229	1020,75
755,537	1012,56
755,846	1008,53
756,154	995,81
756,462	983,76
756,77	980,26
757,078	972,52
757,386	959,91
757,694	950,71
758,002	937,48
758,309	938,6
758,617	923,58
758,925	915,96
759,232	907,19
759,54	904,9
759,847	891,51
760,154	884,96
760,462	874,38
760,769	863,12
761,076	855,81
761,383	843,63
761,69	835,03
761,997	832,21
762,304	822,78
762,611	814,69
762,918	812,77
763,225	809,7
763,532	802,97
763,838	793,77
764,145	784,08
764,451	781,05
764,758	771,19
765,064	768,44
765,371	755,38
765,677	754,84
765,983	754,38
766,289	744,28
766,595	739,89
766,901	736,1
767,207	732,03
767,513	724,99
767,819	711,96
768,125	709,88
768,431	703,62
768,736	695,38
769,042	690,51
769,348	689,75
769,653	680,86
769,959	677,11
770,264	675,28
770,569	669,48
770,875	665,6
771,18	663,72
771,485	654,44
771,79	644,8
772,095	647,24
772,4	634,99
772,705	638,29
773,01	630,92
773,314	627,14
773,619	630,36
773,924	616,26
774,228	617,21
774,533	612,89
774,837	609,69
775,142	606
775,446	600,95
775,75	599,22
776,055	592,75
776,359	596,69
776,663	588,15
776,967	581,08
777,271	585,1
777,575	579,2
777,879	576,11
778,182	569,61
778,486	565,64
778,79	569,37
779,093	559,24
779,397	557,7
779,701	555,91
780,004	552,03
780,307	544,7
780,611	543,41
780,914	538,48
781,217	538,14
781,52	534,42
781,823	535,73
782,126	534,53
782,429	526,86
782,732	526,82
783,035	521,5
783,338	522,64
783,64	514,75
783,943	513,96
784,246	512,63
784,548	513,41
784,85	509,35
785,153	509,05
785,455	502,9
785,757	500,18
786,06	501,65
786,362	495,62
786,664	497,48
786,966	493,43
787,268	489,91
787,57	488,65
787,872	489,25
788,173	482,89
788,475	484,61
788,777	481,63
789,078	478,13
789,38	473,38
789,681	476,94
789,983	472
790,284	467,55
790,585	467,81
790,886	465,35
791,188	465,98
791,489	461,14
791,79	462,59
792,091	461,07
792,392	460,4
792,692	455,91
792,993	458,4
793,294	456,58
793,595	455,11
793,895	447,92
794,196	446,98
794,496	449,08
794,796	446,09
795,097	446,61
795,397	444,63
795,697	438,04
795,997	439,73
796,298	438,57
796,598	431,01
796,898	433,56
797,197	435,2
797,497	436,47
797,797	431,04
798,097	434,84
798,396	428,92
798,696	430,78
798,996	431,51
799,295	428,57
799,594	423,35
799,894	422,88
800,193	425,81
800,492	421,86
800,791	419,27
801,091	414,38
801,39	416,37
801,689	415,08
801,987	419,17
802,286	415,07
802,585	413,2
802,884	413,12
803,182	411,7
803,481	411,6
803,78	412,9
804,078	410,83
804,376	407,93
804,675	412,62
804,973	406,23
805,271	406,42
805,569	406,65
805,868	404,15
806,166	400,7
806,464	402,36
806,761	405,45
807,059	400,9
807,357	400,48
807,655	400,5
807,952	402,55
808,25	398,61
808,547	398,3
808,845	393,22
809,142	396,9
809,44	393,52
809,737	390,11
810,034	393,29
810,331	390,08
810,628	389,11
810,925	389,98
811,222	386,99
811,519	389,18
811,816	384,99
812,113	388,64
812,41	381,07
812,706	386,56
813,003	385,53
813,299	383,75
813,596	384,58
813,892	386,19
814,188	384,74
814,485	384,52
814,781	380,46
815,077	380,55
815,373	377,13
815,669	377,25
815,965	377,81
816,261	373,46
816,557	377,44
816,852	372,27
817,148	377,46
817,444	374,85
817,739	375,16
818,035	372,81
818,33	373,77
818,626	367,85
818,921	374,46
819,216	373,27
819,511	373,63
819,806	370,8
820,101	370,27
820,396	370,74
820,691	369,81
820,986	367,53
821,281	369,09
821,576	371,48
821,87	369,08
822,165	364,15
822,46	365,78
822,754	368,9
823,048	368,38
823,343	364,84
823,637	365,15
823,931	362,46
824,225	366,25
824,52	360,67
824,814	364,06
825,108	360,76
825,401	363,22
825,695	355,88
825,989	354,02
826,283	358,03
826,576	353,75
826,87	358,09
827,164	355,31
827,457	350,36
827,75	356,07
828,044	361,73
828,337	356,48
828,63	358,77
828,923	357,67
829,216	355,14
829,509	353,28
829,802	356,22
830,095	350,42
830,388	351,81
830,681	352,24
830,973	352,16
831,266	349,28
831,559	351,99
831,851	352,34
832,143	350,29
832,436	351,9
832,728	351,42
833,02	350,91
833,312	348,85
833,605	347,85
833,897	349,71
834,189	347,88
834,48	347,09
834,772	348,45
835,064	345,64
835,356	348,78
835,647	343,86
835,939	350,13
836,231	348,6
836,522	343,51
836,813	343,76
837,105	342,72
837,396	344,96
837,687	340,57
837,978	345,71
838,269	345,04
838,56	340,83
838,851	343,85
839,142	343,9
839,433	344,86
839,724	342,63
840,014	341,29
840,305	341,71
840,595	341,53
840,886	342,4
841,176	338,55
841,467	339,06
841,757	338,47
842,047	338,85
842,337	337,86
842,627	339,34
842,917	339,01
843,207	339,74
843,497	338,21
843,787	336,87
844,077	341,12
844,367	337,99
844,656	339,14
844,946	341,98
845,235	341,39
845,525	340,81
845,814	342,85
846,103	336,71
846,393	336,51
846,682	336,27
846,971	336,68
847,26	341,45
847,549	337,28
847,838	339,46
848,127	339,57
848,415	337,73
848,704	335,74
848,993	336,24
849,281	337,46
849,57	338,68
849,858	334,52
850,147	334,74
850,435	333,75
850,723	336,27
851,011	337,58
851,3	336,17
851,588	334,81
851,876	335,65
852,164	337,77
852,451	336,1
852,739	332,68
853,027	334,14
853,315	334,3
853,602	334,73
853,89	334,07
854,177	334,95
854,465	335,26
854,752	333,68
855,039	335,57
855,326	332,73
855,614	336,7
855,901	335,65
856,188	336,75
856,475	334,22
856,761	329,41
857,048	332,53
857,335	333,2
857,622	331,68
857,908	335,31
858,195	337,32
858,481	333,26
858,768	334,11
859,054	331,14
859,34	333,74
859,626	332,21
859,913	332,77
860,199	335,01
860,485	329,64
860,771	336,96
861,057	333,59
861,342	338,33
861,628	330,83
861,914	330,85
862,199	333,44
862,485	332,36
862,77	336,98
863,056	333,36
863,341	332,84
863,626	333,1
863,912	334,15
864,197	333,85
864,482	331,61
864,767	334,06
865,052	328,72
865,337	332,19
865,622	333,62
865,906	327,92
866,191	332,34
866,476	333,14
866,76	333,12
867,045	334,6
867,329	328,27
867,613	334,54
867,898	331,57
868,182	330,12
868,466	334,11
868,75	326,5
869,034	332,91
869,318	331,43
869,602	332,53
869,886	333,04
870,169	331,71
870,453	333,82
870,737	333,86
871,02	332,71
871,304	330,13
871,587	326,11
871,87	332,31
872,154	332,16
872,437	328,29
872,72	333,79
873,003	333,79
873,286	333,79
